ENLIGHTEN Version,1.7.2
Measurement ID,20190716-221457-087029-WP-00438
Serial Number,WP-00438
Label,2mm HDPE
Integration Time,2000
Timestamp,2019-07-16 22:14:57.087029
Note,
Temperature,-99
CCD C0,807.1400146484375
CCD C1,0.11761099845170975
CCD C2,-1.6414700439781882e-05
CCD C3,2.3293600381890656e-09
CCD Offset,0
CCD Gain,8.0
Laser Wavelength,785.0
Laser Enable,True
Laser Power,100.0
Laser Temperature,-99
Pixel Count,1952

Wavenumber,Processed
349.43,0.00
351.23,0.00
353.04,0.00
354.84,6519.00
356.64,5692.00
358.44,6684.00
360.24,5552.00
362.04,6818.00
363.84,5714.00
365.64,6702.00
367.43,5780.00
369.23,6882.00
371.02,5841.00
372.81,6794.00
374.60,5570.00
376.39,6831.00
378.18,5908.00
379.97,6537.00
381.76,5547.00
383.55,6458.00
385.33,5563.00
387.11,6632.00
388.90,5540.00
390.68,6314.00
392.46,5594.00
394.24,6715.00
396.02,5414.00
397.80,6493.00
399.58,5823.00
401.35,6423.00
403.13,5484.00
404.90,6541.00
406.68,5591.00
408.45,6450.00
410.22,5530.00
411.99,6494.00
413.76,5716.00
415.53,6735.00
417.30,5631.00
419.06,6369.00
420.83,5554.00
422.59,6469.00
424.35,5716.00
426.12,6801.00
427.88,5569.00
429.64,6884.00
431.40,5786.00
433.16,6465.00
434.91,5537.00
436.67,6338.00
438.43,5957.00
440.18,6492.00
441.93,5576.00
443.69,6702.00
445.44,5567.00
447.19,6408.00
448.94,5478.00
450.69,6537.00
452.43,5257.00
454.18,6649.00
455.92,5569.00
457.67,6415.00
459.41,5475.00
461.16,6045.00
462.90,5432.00
464.64,6163.00
466.38,5298.00
468.12,6200.00
469.85,5217.00
471.59,6393.00
473.33,5239.00
475.06,6047.00
476.80,5204.00
478.53,6110.00
480.26,5362.00
481.99,5751.00
483.72,5240.00
485.45,6088.00
487.18,5185.00
488.91,5805.00
490.63,5163.00
492.36,6041.00
494.08,5108.00
495.80,5825.00
497.53,5053.00
499.25,5926.00
500.97,5153.00
502.69,5865.00
504.41,5072.00
506.12,5731.00
507.84,4936.00
509.56,5642.00
511.27,4993.00
512.98,5455.00
514.70,4942.00
516.41,5628.00
518.12,4938.00
519.83,5628.00
521.54,4828.00
523.25,5618.00
524.95,4896.00
526.66,5436.00
528.36,4678.00
530.07,5525.00
531.77,4793.00
533.47,5394.00
535.18,4750.00
536.88,5640.00
538.58,4570.00
540.27,5474.00
541.97,4625.00
543.67,5599.00
545.36,4670.00
547.06,5350.00
548.75,4554.00
550.45,5382.00
552.14,4730.00
553.83,5441.00
555.52,4686.00
557.21,5313.00
558.90,4668.00
560.58,5439.00
562.27,4737.00
563.96,5482.00
565.64,4704.00
567.32,5552.00
569.01,4594.00
570.69,5486.00
572.37,4648.00
574.05,5599.00
575.73,4661.00
577.41,5401.00
579.08,4521.00
580.76,5323.00
582.44,4597.00
584.11,5211.00
585.78,4559.00
587.46,5351.00
589.13,4859.00
590.80,5547.00
592.47,4551.00
594.14,5472.00
595.81,4584.00
597.47,5294.00
599.14,4537.00
600.80,5358.00
602.47,4564.00
604.13,5295.00
605.79,4610.00
607.46,5276.00
609.12,4406.00
610.78,5107.00
612.44,4542.00
614.09,5087.00
615.75,4447.00
617.41,5357.00
619.06,4465.00
620.72,5089.00
622.37,4371.00
624.02,5245.00
625.67,4658.00
627.33,5255.00
628.97,4643.00
630.62,5253.00
632.27,4442.00
633.92,5271.00
635.57,4574.00
637.21,5315.00
638.86,4403.00
640.50,4989.00
642.14,4468.00
643.78,4991.00
645.42,4413.00
647.06,5156.00
648.70,4240.00
650.34,4965.00
651.98,4266.00
653.62,5006.00
655.25,4160.00
656.89,5135.00
658.52,4247.00
660.15,4900.00
661.79,4224.00
663.42,4989.00
665.05,4183.00
666.68,4885.00
668.31,4387.00
669.93,5019.00
671.56,4192.00
673.19,5145.00
674.81,4243.00
676.43,4765.00
678.06,4147.00
679.68,4722.00
681.30,4044.00
682.92,4668.00
684.54,4050.00
686.16,4591.00
687.78,4170.00
689.40,4673.00
691.01,4238.00
692.63,4849.00
694.24,4028.00
695.86,4655.00
697.47,3990.00
699.08,4535.00
700.69,4186.00
702.30,4812.00
703.91,3999.00
705.52,4930.00
707.13,4221.00
708.74,4777.00
710.34,4154.00
711.95,4647.00
713.55,4140.00
715.15,4413.00
716.76,4068.00
718.36,4712.00
719.96,4001.00
721.56,4751.00
723.16,4148.00
724.76,4813.00
726.35,4055.00
727.95,4688.00
729.55,4194.00
731.14,4759.00
732.73,4221.00
734.33,4713.00
735.92,4193.00
737.51,4889.00
739.10,4126.00
740.69,4951.00
742.28,4000.00
743.87,4901.00
745.46,4187.00
747.04,4729.00
748.63,4196.00
750.21,4884.00
751.80,4113.00
753.38,4781.00
754.96,4173.00
756.54,4884.00
758.12,4092.00
759.70,5121.00
761.28,4177.00
762.86,4845.00
764.44,4271.00
766.01,4825.00
767.59,4148.00
769.16,4802.00
770.74,4323.00
772.31,4915.00
773.88,4305.00
775.45,4960.00
777.02,4310.00
778.59,5078.00
780.16,4222.00
781.73,5110.00
783.30,4144.00
784.86,5110.00
786.43,4427.00
787.99,5118.00
789.56,4350.00
791.12,5264.00
792.68,4320.00
794.24,5168.00
795.80,4294.00
797.36,5106.00
798.92,4421.00
800.48,5098.00
802.04,4483.00
803.59,5142.00
805.15,4656.00
806.70,5066.00
808.26,4234.00
809.81,5221.00
811.36,4510.00
812.91,5213.00
814.46,4440.00
816.01,5227.00
817.56,4532.00
819.11,5231.00
820.66,4678.00
822.20,5455.00
823.75,4661.00
825.30,5501.00
826.84,4521.00
828.38,5415.00
829.93,4539.00
831.47,5229.00
833.01,4544.00
834.55,5483.00
836.09,4573.00
837.63,5464.00
839.16,4689.00
840.70,5431.00
842.24,4704.00
843.77,5510.00
845.31,5052.00
846.84,5652.00
848.37,5132.00
849.90,5693.00
851.44,4899.00
852.97,5491.00
854.50,4813.00
856.03,5561.00
857.55,5003.00
859.08,5802.00
860.61,4885.00
862.13,5684.00
863.66,4996.00
865.18,5735.00
866.70,4974.00
868.23,5768.00
869.75,4884.00
871.27,6002.00
872.79,5000.00
874.31,5875.00
875.83,5071.00
877.35,5801.00
878.86,4978.00
880.38,5762.00
881.89,5003.00
883.41,5868.00
884.92,4905.00
886.44,5628.00
887.95,5021.00
889.46,5849.00
890.97,5030.00
892.48,5708.00
893.99,4759.00
895.50,5871.00
897.01,4963.00
898.51,5755.00
900.02,5010.00
901.52,5571.00
903.03,4901.00
904.53,5748.00
906.04,4883.00
907.54,5521.00
909.04,4815.00
910.54,5560.00
912.04,4797.00
913.54,5407.00
915.04,4631.00
916.53,5421.00
918.03,4703.00
919.53,5603.00
921.02,4625.00
922.52,5384.00
924.01,4612.00
925.50,5329.00
927.00,4616.00
928.49,5253.00
929.98,4669.00
931.47,5244.00
932.96,4476.00
934.44,5194.00
935.93,4633.00
937.42,5095.00
938.90,4454.00
940.39,5074.00
941.87,4621.00
943.36,5218.00
944.84,4562.00
946.32,4978.00
947.80,4519.00
949.29,4989.00
950.77,4522.00
952.24,5219.00
953.72,4429.00
955.20,5073.00
956.68,4067.00
958.15,4978.00
959.63,4427.00
961.10,4764.00
962.58,4307.00
964.05,4928.00
965.52,4118.00
967.00,4897.00
968.47,4154.00
969.94,4919.00
971.41,4317.00
972.87,5013.00
974.34,4083.00
975.81,4753.00
977.28,4212.00
978.74,5036.00
980.21,4160.00
981.67,4880.00
983.13,4180.00
984.60,4693.00
986.06,4104.00
987.52,4822.00
988.98,4191.00
990.44,4911.00
991.90,4083.00
993.36,4889.00
994.82,4116.00
996.27,4930.00
997.73,4101.00
999.18,4790.00
1000.64,4191.00
1002.09,4823.00
1003.55,4264.00
1005.00,4938.00
1006.45,4411.00
1007.90,4928.00
1009.35,4093.00
1010.80,5202.00
1012.25,4268.00
1013.70,4806.00
1015.14,4300.00
1016.59,4700.00
1018.04,4226.00
1019.48,4939.00
1020.93,4432.00
1022.37,5121.00
1023.81,4501.00
1025.25,4906.00
1026.70,4503.00
1028.14,4996.00
1029.58,4521.00
1031.02,5280.00
1032.45,4866.00
1033.89,5610.00
1035.33,5428.00
1036.77,6590.00
1038.20,6243.00
1039.64,7275.00
1041.07,6658.00
1042.50,7686.00
1043.94,7261.00
1045.37,7936.00
1046.80,7500.00
1048.23,8041.00
1049.66,7138.00
1051.09,8023.00
1052.52,7231.00
1053.95,8029.00
1055.37,7049.00
1056.80,7993.00
1058.23,7184.00
1059.65,8079.00
1061.08,7125.00
1062.50,7903.00
1063.92,7188.00
1065.34,7949.00
1066.76,6672.00
1068.19,7468.00
1069.61,6712.00
1071.02,7366.00
1072.44,6377.00
1073.86,7081.00
1075.28,6079.00
1076.69,6658.00
1078.11,5982.00
1079.53,6644.00
1080.94,5753.00
1082.35,6587.00
1083.77,5765.00
1085.18,6204.00
1086.59,5525.00
1088.00,6043.00
1089.41,5255.00
1090.82,6133.00
1092.23,5475.00
1093.64,6030.00
1095.04,5245.00
1096.45,6166.00
1097.86,5735.00
1099.26,6730.00
1100.67,6364.00
1102.07,7103.00
1103.47,7066.00
1104.88,8121.00
1106.28,7498.00
1107.68,9032.00
1109.08,8349.00
1110.48,9521.00
1111.88,8803.00
1113.28,9389.00
1114.67,8612.00
1116.07,9279.00
1117.47,8370.00
1118.86,8815.00
1120.26,8022.00
1121.65,8791.00
1123.05,8000.00
1124.44,8403.00
1125.83,7688.00
1127.22,8402.00
1128.61,7438.00
1130.00,8370.00
1131.39,7500.00
1132.78,8093.00
1134.17,7177.00
1135.56,7705.00
1136.94,6756.00
1138.33,7645.00
1139.72,6524.00
1141.10,7330.00
1142.48,6208.00
1143.87,6995.00
1145.25,6128.00
1146.63,6730.00
1148.01,6185.00
1149.39,6775.00
1150.77,5871.00
1152.15,6767.00
1153.53,5918.00
1154.91,6358.00
1156.29,5749.00
1157.66,6217.00
1159.04,5780.00
1160.41,6254.00
1161.79,5492.00
1163.16,6191.00
1164.54,5583.00
1165.91,6042.00
1167.28,5443.00
1168.65,5912.00
1170.02,5334.00
1171.39,5994.00
1172.76,5233.00
1174.13,5947.00
1175.50,5297.00
1176.86,5815.00
1178.23,5300.00
1179.60,5696.00
1180.96,5260.00
1182.33,5708.00
1183.69,4889.00
1185.05,5716.00
1186.42,4841.00
1187.78,5562.00
1189.14,5030.00
1190.50,5639.00
1191.86,4690.00
1193.22,5569.00
1194.58,4793.00
1195.94,5454.00
1197.29,4931.00
1198.65,5441.00
1200.01,4739.00
1201.36,5280.00
1202.72,4864.00
1204.07,5422.00
1205.42,4888.00
1206.78,5471.00
1208.13,4714.00
1209.48,5359.00
1210.83,4927.00
1212.18,5440.00
1213.53,4644.00
1214.88,5246.00
1216.23,4640.00
1217.58,5341.00
1218.92,4688.00
1220.27,5329.00
1221.61,4525.00
1222.96,5273.00
1224.30,4693.00
1225.65,4901.00
1226.99,4686.00
1228.33,5246.00
1229.67,4611.00
1231.01,5150.00
1232.36,4439.00
1233.70,5109.00
1235.03,4674.00
1236.37,5327.00
1237.71,4485.00
1239.05,5223.00
1240.38,4717.00
1241.72,5137.00
1243.06,4644.00
1244.39,5171.00
1245.72,4685.00
1247.06,5297.00
1248.39,4734.00
1249.72,5122.00
1251.05,4763.00
1252.39,5418.00
1253.72,4718.00
1255.05,5267.00
1256.37,4999.00
1257.70,5294.00
1259.03,5105.00
1260.36,5542.00
1261.68,5148.00
1263.01,5792.00
1264.33,5274.00
1265.66,6429.00
1266.98,5893.00
1268.31,7054.00
1269.63,6814.00
1270.95,7978.00
1272.27,7890.00
1273.59,8996.00
1274.91,8646.00
1276.23,9870.00
1277.55,9570.00
1278.87,9746.00
1280.19,9181.00
1281.51,9992.00
1282.82,8815.00
1284.14,9294.00
1285.45,8776.00
1286.77,9110.00
1288.08,8243.00
1289.39,8921.00
1290.71,8107.00
1292.02,8828.00
1293.33,8382.00
1294.64,9004.00
1295.95,8515.00
1297.26,8880.00
1298.57,7929.00
1299.88,8421.00
1301.19,7558.00
1302.49,7915.00
1303.80,7007.00
1305.11,7404.00
1306.41,6765.00
1307.72,7234.00
1309.02,6211.00
1310.32,6916.00
1311.63,5963.00
1312.93,6397.00
1314.23,5887.00
1315.53,6317.00
1316.83,5498.00
1318.13,5943.00
1319.43,5289.00
1320.73,5660.00
1322.03,4928.00
1323.32,5603.00
1324.62,4755.00
1325.92,5357.00
1327.21,4672.00
1328.51,5376.00
1329.80,4618.00
1331.10,5365.00
1332.39,4485.00
1333.68,5115.00
1334.97,4354.00
1336.27,4877.00
1337.56,4572.00
1338.85,5172.00
1340.14,4227.00
1341.42,4980.00
1342.71,4488.00
1344.00,5152.00
1345.29,4555.00
1346.57,5224.00
1347.86,4472.00
1349.15,5278.00
1350.43,4823.00
1351.71,5045.00
1353.00,4655.00
1354.28,5231.00
1355.56,4485.00
1356.85,5272.00
1358.13,4463.00
1359.41,5076.00
1360.69,4546.00
1361.97,5057.00
1363.25,4558.00
1364.52,4979.00
1365.80,4700.00
1367.08,5191.00
1368.35,4420.00
1369.63,5193.00
1370.91,4342.00
1372.18,5194.00
1373.45,4499.00
1374.73,5107.00
1376.00,4717.00
1377.27,5128.00
1378.54,4815.00
1379.82,5107.00
1381.09,4686.00
1382.36,5156.00
1383.63,4813.00
1384.89,5279.00
1386.16,4793.00
1387.43,5381.00
1388.70,4851.00
1389.96,5838.00
1391.23,5321.00
1392.50,6169.00
1393.76,5955.00
1395.02,6999.00
1396.29,6428.00
1397.55,7288.00
1398.81,6673.00
1400.08,7574.00
1401.34,6696.00
1402.60,7427.00
1403.86,6994.00
1405.12,7794.00
1406.38,7506.00
1407.63,7924.00
1408.89,7591.00
1410.15,8527.00
1411.41,8087.00
1412.66,9140.00
1413.92,9127.00
1415.17,10392.00
1416.43,10122.00
1417.68,11237.00
1418.93,10968.00
1420.19,12311.00
1421.44,12018.00
1422.69,12419.00
1423.94,11983.00
1425.19,12807.00
1426.44,12527.00
1427.69,12821.00
1428.94,12083.00
1430.19,12794.00
1431.43,12104.00
1432.68,12645.00
1433.93,12274.00
1435.17,12530.00
1436.42,12218.00
1437.66,13034.00
1438.91,12426.00
1440.15,13070.00
1441.39,12813.00
1442.64,13112.00
1443.88,12735.00
1445.12,13164.00
1446.36,12626.00
1447.60,13038.00
1448.84,11988.00
1450.08,12497.00
1451.32,11757.00
1452.56,11916.00
1453.79,11174.00
1455.03,11539.00
1456.27,10709.00
1457.50,10741.00
1458.74,10249.00
1459.97,10259.00
1461.21,9665.00
1462.44,9917.00
1463.67,9007.00
1464.91,9745.00
1466.14,8704.00
1467.37,8986.00
1468.60,8268.00
1469.83,8700.00
1471.06,7887.00
1472.29,7905.00
1473.52,7232.00
1474.75,7633.00
1475.97,6935.00
1477.20,7130.00
1478.43,6691.00
1479.65,7090.00
1480.88,6241.00
1482.10,6585.00
1483.33,5870.00
1484.55,6260.00
1485.77,5545.00
1487.00,6221.00
1488.22,5518.00
1489.44,5941.00
1490.66,5263.00
1491.88,5598.00
1493.10,4882.00
1494.32,5404.00
1495.54,5031.00
1496.76,5375.00
1497.97,4997.00
1499.19,5353.00
1500.41,4609.00
1501.62,5141.00
1502.84,4500.00
1504.05,5132.00
1505.27,4644.00
1506.48,4856.00
1507.70,4388.00
1508.91,4951.00
1510.12,4306.00
1511.33,4820.00
1512.54,4452.00
1513.75,4778.00
1514.96,4264.00
1516.17,4816.00
1517.38,4439.00
1518.59,4841.00
1519.80,4206.00
1521.01,4735.00
1522.21,4120.00
1523.42,4561.00
1524.63,4076.00
1525.83,4490.00
1527.04,4157.00
1528.24,4490.00
1529.44,4105.00
1530.65,4594.00
1531.85,4072.00
1533.05,4664.00
1534.25,3881.00
1535.45,4351.00
1536.65,3933.00
1537.85,4492.00
1539.05,3726.00
1540.25,4431.00
1541.45,4104.00
1542.65,4434.00
1543.85,4021.00
1545.04,4306.00
1546.24,3735.00
1547.44,4275.00
1548.63,3950.00
1549.83,4163.00
1551.02,3738.00
1552.21,4116.00
1553.41,3752.00
1554.60,4337.00
1555.79,3585.00
1556.98,4235.00
1558.17,3684.00
1559.37,4070.00
1560.56,3575.00
1561.74,3948.00
1562.93,3708.00
1564.12,3872.00
1565.31,3583.00
1566.50,4043.00
1567.68,3442.00
1568.87,4059.00
1570.06,3680.00
1571.24,3989.00
1572.43,3537.00
1573.61,3975.00
1574.80,3329.00
1575.98,3949.00
1577.16,3472.00
1578.34,3826.00
1579.53,3243.00
1580.71,3784.00
1581.89,3298.00
1583.07,3854.00
1584.25,3448.00
1585.43,3795.00
1586.61,3360.00
1587.78,3639.00
1588.96,3479.00
1590.14,3791.00
1591.32,3237.00
1592.49,3685.00
1593.67,3204.00
1594.84,3697.00
1596.02,3406.00
1597.19,3688.00
1598.37,3192.00
1599.54,3728.00
1600.71,3184.00
1601.88,3644.00
1603.06,3276.00
1604.23,3768.00
1605.40,3401.00
1606.57,3671.00
1607.74,3207.00
1608.91,3681.00
1610.07,3143.00
1611.24,3674.00
1612.41,3162.00
1613.58,3694.00
1614.74,3157.00
1615.91,3575.00
1617.08,3122.00
1618.24,3719.00
1619.41,3323.00
1620.57,3573.00
1621.73,3094.00
1622.90,3586.00
1624.06,3241.00
1625.22,3616.00
1626.38,3233.00
1627.54,3809.00
1628.70,3126.00
1629.87,3590.00
1631.02,3115.00
1632.18,3516.00
1633.34,3339.00
1634.50,3492.00
1635.66,3135.00
1636.82,3558.00
1637.97,3074.00
1639.13,3488.00
1640.28,3099.00
1641.44,3608.00
1642.59,3099.00
1643.75,3642.00
1644.90,2972.00
1646.06,3634.00
1647.21,3038.00
1648.36,3660.00
1649.51,3208.00
1650.66,3528.00
1651.81,3172.00
1652.97,3417.00
1654.11,2970.00
1655.26,3587.00
1656.41,3117.00
1657.56,3418.00
1658.71,3093.00
1659.86,3513.00
1661.00,3079.00
1662.15,3429.00
1663.30,3144.00
1664.44,3584.00
1665.59,3015.00
1666.73,3533.00
1667.88,2973.00
1669.02,3624.00
1670.16,2953.00
1671.30,3476.00
1672.45,3052.00
1673.59,3345.00
1674.73,3119.00
1675.87,3398.00
1677.01,3015.00
1678.15,3420.00
1679.29,3016.00
1680.43,3319.00
1681.57,3099.00
1682.70,3502.00
1683.84,3144.00
1684.98,3408.00
1686.12,3159.00
1687.25,3611.00
1688.39,3080.00
1689.52,3596.00
1690.66,3135.00
1691.79,3484.00
1692.92,3036.00
1694.06,3543.00
1695.19,3142.00
1696.32,3596.00
1697.45,3012.00
1698.58,3478.00
1699.72,2875.00
1700.85,3310.00
1701.98,3147.00
1703.10,3331.00
1704.23,2980.00
1705.36,3592.00
1706.49,3171.00
1707.62,3741.00
1708.74,3172.00
1709.87,3586.00
1711.00,3225.00
1712.12,3639.00
1713.25,3267.00
1714.37,3470.00
1715.50,3132.00
1716.62,3490.00
1717.74,3015.00
1718.87,3394.00
1719.99,3191.00
1721.11,3444.00
1722.23,3134.00
1723.35,3560.00
1724.47,3083.00
1725.59,3524.00
1726.71,3122.00
1727.83,3582.00
1728.95,3116.00
1730.07,3533.00
1731.19,2975.00
1732.30,3502.00
1733.42,3124.00
1734.54,3447.00
1735.65,3060.00
1736.77,3405.00
1737.88,3113.00
1739.00,3621.00
1740.11,2988.00
1741.23,3553.00
1742.34,3042.00
1743.45,3399.00
1744.56,2923.00
1745.68,3365.00
1746.79,2953.00
1747.90,3398.00
1749.01,2969.00
1750.12,3386.00
1751.23,2805.00
1752.34,3562.00
1753.45,3051.00
1754.55,3369.00
1755.66,2959.00
1756.77,3371.00
1757.88,2908.00
1758.98,3355.00
1760.09,2903.00
1761.19,3472.00
1762.30,2919.00
1763.40,3334.00
1764.51,2793.00
1765.61,3222.00
1766.71,2740.00
1767.82,3072.00
1768.92,2873.00
1770.02,3366.00
1771.12,2755.00
1772.22,3074.00
1773.32,2825.00
1774.42,3267.00
1775.52,2806.00
1776.62,3171.00
1777.72,2662.00
1778.82,3164.00
1779.92,2682.00
1781.01,3160.00
1782.11,2482.00
1783.21,3181.00
1784.30,2645.00
1785.40,3082.00
1786.50,2719.00
1787.59,2984.00
1788.68,2538.00
1789.78,3183.00
1790.87,2708.00
1791.96,2936.00
1793.06,2559.00
1794.15,3096.00
1795.24,2589.00
1796.33,3129.00
1797.42,2650.00
1798.51,3057.00
1799.60,2665.00
1800.69,2845.00
1801.78,2472.00
1802.87,2870.00
1803.96,2532.00
1805.05,2741.00
1806.13,2489.00
1807.22,2972.00
1808.31,2435.00
1809.39,2903.00
1810.48,2379.00
1811.56,2734.00
1812.65,2381.00
1813.73,2756.00
1814.82,2543.00
1815.90,2695.00
1816.98,2347.00
1818.07,2827.00
1819.15,2290.00
1820.23,2685.00
1821.31,2491.00
1822.39,2563.00
1823.47,2331.00
1824.55,2648.00
1825.63,2128.00
1826.71,2535.00
1827.79,2387.00
1828.87,2645.00
1829.95,2198.00
1831.02,2668.00
1832.10,2111.00
1833.18,2517.00
1834.25,2031.00
1835.33,2652.00
1836.40,2153.00
1837.48,2502.00
1838.55,2222.00
1839.63,2297.00
1840.70,2120.00
1841.77,2453.00
1842.85,2054.00
1843.92,2343.00
1844.99,2158.00
1846.06,2431.00
1847.13,1996.00
1848.20,2283.00
1849.28,2108.00
1850.34,2342.00
1851.41,1934.00
1852.48,2313.00
1853.55,1823.00
1854.62,2322.00
1855.69,2131.00
1856.76,2208.00
1857.82,1902.00
1858.89,2302.00
1859.95,1813.00
1861.02,2399.00
1862.09,1720.00
1863.15,2165.00
1864.21,1756.00
1865.28,2128.00
1866.34,1928.00
1867.41,2141.00
1868.47,1863.00
1869.53,2174.00
1870.59,1844.00
1871.65,2157.00
1872.71,1928.00
1873.78,2186.00
1874.84,1936.00
1875.90,2138.00
1876.96,1717.00
1878.01,2260.00
1879.07,1787.00
1880.13,2081.00
1881.19,1653.00
1882.25,1994.00
1883.30,1723.00
1884.36,2201.00
1885.42,1767.00
1886.47,2255.00
1887.53,1704.00
1888.58,2150.00
1889.64,1707.00
1890.69,2073.00
1891.74,1668.00
1892.80,2035.00
1893.85,1741.00
1894.90,2186.00
1895.96,1706.00
1897.01,2100.00
1898.06,1717.00
1899.11,2101.00
1900.16,1506.00
1901.21,1937.00
1902.26,1672.00
1903.31,2061.00
1904.36,1809.00
1905.41,2112.00
1906.45,1574.00
1907.50,1997.00
1908.55,1675.00
1909.60,1968.00
1910.64,1667.00
1911.69,2066.00
1912.73,1752.00
1913.78,2000.00
1914.82,1590.00
1915.87,2169.00
1916.91,1734.00
1917.96,2031.00
1919.00,1603.00
1920.04,1938.00
1921.08,1762.00
1922.13,2018.00
1923.17,1685.00
1924.21,1993.00
1925.25,1562.00
1926.29,1934.00
1927.33,1737.00
1928.37,1818.00
1929.41,1583.00
1930.45,1999.00
1931.49,1678.00
1932.53,1952.00
1933.56,1566.00
1934.60,1883.00
1935.64,1703.00
1936.67,2022.00
1937.71,1738.00
1938.75,2042.00
1939.78,1590.00
1940.82,1907.00
1941.85,1595.00
1942.89,1928.00
1943.92,1645.00
1944.95,1853.00
1945.99,1729.00
1947.02,1959.00
1948.05,1563.00
1949.08,1999.00
1950.11,1680.00
1951.15,1952.00
1952.18,1594.00
1953.21,1956.00
1954.24,1652.00
1955.27,1924.00
1956.30,1660.00
1957.32,1891.00
1958.35,1603.00
1959.38,1966.00
1960.41,1411.00
1961.44,1940.00
1962.46,1608.00
1963.49,1785.00
1964.51,1516.00
1965.54,1898.00
1966.57,1471.00
1967.59,1825.00
1968.62,1573.00
1969.64,1892.00
1970.66,1517.00
1971.69,1892.00
1972.71,1594.00
1973.73,1999.00
1974.75,1522.00
1975.78,1917.00
1976.80,1556.00
1977.82,1825.00
1978.84,1570.00
1979.86,1873.00
1980.88,1501.00
1981.90,1759.00
1982.92,1491.00
1983.94,1858.00
1984.96,1444.00
1985.98,1772.00
1986.99,1418.00
1988.01,2005.00
1989.03,1514.00
1990.04,1833.00
1991.06,1375.00
1992.08,1744.00
1993.09,1559.00
1994.11,1848.00
1995.12,1489.00
1996.14,1997.00
1997.15,1532.00
1998.16,1681.00
1999.18,1425.00
2000.19,1890.00
2001.20,1380.00
2002.21,1731.00
2003.23,1620.00
2004.24,1839.00
2005.25,1361.00
2006.26,1736.00
2007.27,1529.00
2008.28,1830.00
2009.29,1620.00
2010.30,1761.00
2011.31,1440.00
2012.32,1889.00
2013.32,1449.00
2014.33,1864.00
2015.34,1383.00
2016.35,1810.00
2017.35,1283.00
2018.36,1619.00
2019.36,1420.00
2020.37,1779.00
2021.38,1542.00
2022.38,1845.00
2023.38,1557.00
2024.39,1793.00
2025.39,1542.00
2026.40,1761.00
2027.40,1558.00
2028.40,1713.00
2029.40,1412.00
2030.41,1772.00
2031.41,1495.00
2032.41,1619.00
2033.41,1511.00
2034.41,1862.00
2035.41,1382.00
2036.41,1747.00
2037.41,1450.00
2038.41,1918.00
2039.41,1365.00
2040.40,1757.00
2041.40,1402.00
2042.40,1815.00
2043.40,1459.00
2044.39,1731.00
2045.39,1477.00
2046.39,1910.00
2047.38,1370.00
2048.38,1872.00
2049.37,1317.00
2050.37,1582.00
2051.36,1347.00
2052.36,1801.00
2053.35,1405.00
2054.34,1747.00
2055.34,1425.00
2056.33,1602.00
2057.32,1465.00
2058.31,1675.00
2059.30,1437.00
2060.30,1653.00
2061.29,1303.00
2062.28,1650.00
2063.27,1361.00
2064.26,1653.00
2065.25,1283.00
2066.23,1600.00
2067.22,1375.00
2068.21,1587.00
2069.20,1232.00
2070.19,1733.00
2071.17,1273.00
2072.16,1620.00
2073.15,1336.00
2074.13,1525.00
2075.12,1266.00
2076.11,1468.00
2077.09,1204.00
2078.08,1577.00
2079.06,1284.00
2080.04,1641.00
2081.03,1227.00
2082.01,1730.00
2083.00,1192.00
2083.98,1380.00
2084.96,1229.00
2085.94,1622.00
2086.92,1183.00
2087.91,1504.00
2088.89,1321.00
2089.87,1393.00
2090.85,1172.00
2091.83,1390.00
2092.81,1074.00
2093.79,1425.00
2094.77,1306.00
2095.74,1522.00
2096.72,1052.00
2097.70,1488.00
2098.68,1224.00
2099.66,1526.00
2100.63,1166.00
2101.61,1418.00
2102.59,1162.00
2103.56,1487.00
2104.54,1203.00
2105.51,1516.00
2106.49,1112.00
2107.46,1521.00
2108.44,1170.00
2109.41,1327.00
2110.38,1112.00
2111.36,1427.00
2112.33,1145.00
2113.30,1358.00
2114.27,1056.00
2115.25,1368.00
2116.22,1050.00
2117.19,1277.00
2118.16,1076.00
2119.13,1253.00
2120.10,1063.00
2121.07,1447.00
2122.04,1064.00
2123.01,1346.00
2123.98,1133.00
2124.95,1295.00
2125.91,985.00
2126.88,1344.00
2127.85,922.00
2128.82,1314.00
2129.78,927.00
2130.75,1210.00
2131.72,930.00
2132.68,1282.00
2133.65,911.00
2134.61,1407.00
2135.58,948.00
2136.54,1230.00
2137.51,1036.00
2138.47,1219.00
2139.43,949.00
2140.40,1260.00
2141.36,963.00
2142.32,1410.00
2143.29,988.00
2144.25,1220.00
2145.21,929.00
2146.17,1204.00
2147.13,980.00
2148.09,1297.00
2149.05,1014.00
2150.01,1305.00
2150.97,999.00
2151.93,1304.00
2152.89,905.00
2153.85,1257.00
2154.81,1026.00
2155.76,1233.00
2156.72,1051.00
2157.68,1248.00
2158.64,1092.00
2159.59,1277.00
2160.55,1058.00
2161.51,1320.00
2162.46,944.00
2163.42,1238.00
2164.37,1137.00
2165.33,1297.00
2166.28,970.00
2167.24,1175.00
2168.19,875.00
2169.14,1302.00
2170.10,1035.00
2171.05,1415.00
2172.00,980.00
2172.95,1419.00
2173.91,1134.00
2174.86,1306.00
2175.81,967.00
2176.76,1286.00
2177.71,1036.00
2178.66,1266.00
2179.61,1108.00
2180.56,1307.00
2181.51,1062.00
2182.46,1259.00
2183.41,985.00
2184.36,1303.00
2185.30,1011.00
2186.25,1292.00
2187.20,930.00
2188.15,1382.00
2189.09,950.00
2190.04,1293.00
2190.99,1007.00
2191.93,1382.00
2192.88,977.00
2193.82,1305.00
2194.77,946.00
2195.71,1339.00
2196.66,933.00
2197.60,1199.00
2198.54,910.00
2199.49,1296.00
2200.43,965.00
2201.37,1347.00
2202.32,1030.00
2203.26,1354.00
2204.20,1024.00
2205.14,1304.00
2206.08,961.00
2207.02,1339.00
2207.96,866.00
2208.90,1355.00
2209.84,1086.00
2210.78,1266.00
2211.72,1067.00
2212.66,1195.00
2213.60,964.00
2214.54,1218.00
2215.48,1079.00
2216.42,1309.00
2217.35,921.00
2218.29,1258.00
2219.23,1064.00
2220.16,1288.00
2221.10,1106.00
2222.04,1312.00
2222.97,954.00
2223.91,1302.00
2224.84,993.00
2225.78,1332.00
2226.71,1056.00
2227.65,1305.00
2228.58,1037.00
2229.51,1387.00
2230.45,1031.00
2231.38,1205.00
2232.31,988.00
2233.24,1280.00
2234.18,1025.00
2235.11,1426.00
2236.04,888.00
2236.97,1405.00
2237.90,1117.00
2238.83,1320.00
2239.76,1088.00
2240.69,1337.00
2241.62,1010.00
2242.55,1372.00
2243.48,1045.00
2244.41,1235.00
2245.34,1063.00
2246.27,1258.00
2247.19,1062.00
2248.12,1325.00
2249.05,1030.00
2249.98,1378.00
2250.90,1114.00
2251.83,1312.00
2252.75,1001.00
2253.68,1224.00
2254.61,904.00
2255.53,1342.00
2256.46,1055.00
2257.38,1349.00
2258.31,1081.00
2259.23,1347.00
2260.15,1136.00
2261.08,1343.00
2262.00,1015.00
2262.92,1378.00
2263.85,1043.00
2264.77,1263.00
2265.69,954.00
2266.61,1352.00
2267.53,892.00
2268.45,1305.00
2269.37,1174.00
2270.30,1285.00
2271.22,1011.00
2272.14,1360.00
2273.05,1201.00
2273.97,1278.00
2274.89,1036.00
2275.81,1385.00
2276.73,966.00
2277.65,1309.00
2278.57,1123.00
2279.48,1356.00
2280.40,925.00
2281.32,1332.00
2282.24,959.00
2283.15,1262.00
2284.07,1043.00
2284.98,1254.00
2285.90,932.00
2286.82,1352.00
2287.73,954.00
2288.65,1315.00
2289.56,1016.00
2290.47,1377.00
2291.39,1062.00
2292.30,1296.00
2293.21,979.00
2294.13,1213.00
2295.04,1068.00
2295.95,1201.00
2296.87,993.00
2297.78,1275.00
2298.69,889.00
2299.60,1375.00
2300.51,1015.00
2301.42,1216.00
2302.33,930.00
2303.24,1297.00
2304.15,1017.00
2305.06,1298.00
2305.97,908.00
2306.88,1251.00
2307.79,893.00
2308.70,1192.00
2309.61,907.00
2310.51,1193.00
2311.42,936.00
2312.33,1329.00
2313.24,981.00
2314.14,1348.00
2315.05,925.00
2315.96,1255.00
2316.86,795.00
2317.77,1109.00
2318.67,853.00
2319.58,1230.00
2320.48,837.00
2321.39,1235.00
2322.29,837.00
2323.20,1117.00
2324.10,833.00
2325.00,1126.00
2325.91,943.00
2326.81,1125.00
2327.71,974.00
2328.62,1169.00
2329.52,906.00
2330.42,1065.00
2331.32,822.00
2332.22,1060.00
2333.12,852.00
2334.03,1245.00
2334.93,903.00
2335.83,1173.00
2336.73,813.00
2337.63,1134.00
2338.53,869.00
2339.42,1183.00
2340.32,728.00
2341.22,1101.00
2342.12,764.00
2343.02,1124.00
2343.92,826.00
2344.81,1057.00
2345.71,862.00
2346.61,1120.00
2347.51,814.00
2348.40,1159.00
2349.30,728.00
2350.19,1107.00
2351.09,839.00
2351.98,1078.00
2352.88,896.00
2353.77,1153.00
2354.67,734.00
2355.56,997.00
2356.46,878.00
2357.35,1165.00
2358.25,843.00
2359.14,1094.00
2360.03,726.00
2360.92,1076.00
2361.82,714.00
2362.71,1008.00
2363.60,835.00
2364.49,1079.00
2365.38,725.00
2366.28,1089.00
2367.17,751.00
2368.06,1205.00
2368.95,830.00
2369.84,1076.00
2370.73,736.00
2371.62,1123.00
2372.51,757.00
2373.40,1078.00
2374.28,817.00
2375.17,1057.00
2376.06,912.00
2376.95,970.00
2377.84,818.00
2378.72,1110.00
2379.61,763.00
2380.50,1201.00
2381.39,728.00
2382.27,1121.00
2383.16,756.00
2384.04,1025.00
2384.93,743.00
2385.81,1067.00
2386.70,851.00
2387.59,1072.00
2388.47,764.00
2389.35,1169.00
2390.24,849.00
2391.12,1055.00
2392.01,908.00
2392.89,985.00
2393.77,804.00
2394.66,1039.00
2395.54,754.00
2396.42,1090.00
2397.30,648.00
2398.18,1084.00
2399.07,776.00
2399.95,1063.00
2400.83,714.00
2401.71,1064.00
2402.59,683.00
2403.47,1162.00
2404.35,802.00
2405.23,970.00
2406.11,732.00
2406.99,1092.00
2407.87,768.00
2408.75,1102.00
2409.62,792.00
2410.50,1154.00
2411.38,781.00
2412.26,1082.00
2413.14,806.00
2414.01,982.00
2414.89,866.00
2415.77,1078.00
2416.64,764.00
2417.52,1074.00
2418.40,776.00
2419.27,1012.00
2420.15,832.00
2421.02,1057.00
2421.90,853.00
2422.77,1221.00
2423.65,744.00
2424.52,1158.00
2425.40,717.00
2426.27,1152.00
2427.14,873.00
2428.02,1184.00
2428.89,889.00
2429.76,1161.00
2430.64,859.00
2431.51,1144.00
2432.38,758.00
2433.25,1119.00
2434.12,888.00
2434.99,1102.00
2435.87,743.00
2436.74,1199.00
2437.61,675.00
2438.48,1209.00
2439.35,805.00
2440.22,1230.00
2441.09,754.00
2441.96,1162.00
2442.83,761.00
2443.69,1181.00
2444.56,802.00
2445.43,1142.00
2446.30,835.00
2447.17,1096.00
2448.04,840.00
2448.90,1090.00
2449.77,815.00
2450.64,1214.00
2451.50,775.00
2452.37,1102.00
2453.24,860.00
2454.10,1168.00
2454.97,778.00
2455.83,1151.00
2456.70,822.00
2457.56,1170.00
2458.43,747.00
2459.29,1298.00
2460.16,848.00
2461.02,1148.00
2461.89,820.00
2462.75,1124.00
2463.61,709.00
2464.48,1151.00
2465.34,949.00
2466.20,1325.00
2467.06,767.00
2467.93,987.00
2468.79,791.00
2469.65,1080.00
2470.51,889.00
2471.37,1202.00
2472.23,833.00
2473.10,1103.00
2473.96,797.00
2474.82,1183.00
2475.68,828.00
2476.54,1160.00
2477.40,875.00
2478.26,1129.00
2479.11,747.00
2479.97,1246.00
2480.83,827.00
2481.69,1132.00
2482.55,826.00
2483.41,1275.00
2484.26,972.00
2485.12,1198.00
2485.98,764.00
2486.84,1147.00
2487.69,733.00
2488.55,1097.00
2489.41,867.00
2490.26,1160.00
2491.12,854.00
2491.97,1224.00
2492.83,762.00
2493.68,1221.00
2494.54,754.00
2495.39,1217.00
2496.25,901.00
2497.10,1083.00
2497.96,855.00
2498.81,1134.00
2499.67,813.00
2500.52,1154.00
2501.37,772.00
2502.22,1175.00
2503.08,850.00
2503.93,1080.00
2504.78,771.00
2505.63,1265.00
2506.49,777.00
2507.34,1139.00
2508.19,914.00
2509.04,1244.00
2509.89,831.00
2510.74,1051.00
2511.59,891.00
2512.44,1161.00
2513.29,811.00
2514.14,1276.00
2514.99,830.00
2515.84,1226.00
2516.69,757.00
2517.54,1075.00
2518.39,845.00
2519.24,1089.00
2520.08,902.00
2520.93,1124.00
2521.78,847.00
2522.63,1130.00
2523.48,848.00
2524.32,1106.00
2525.17,827.00
2526.02,1218.00
2526.86,777.00
2527.71,1242.00
2528.56,717.00
2529.40,1074.00
2530.25,794.00
2531.09,1099.00
2531.94,698.00
2532.78,1025.00
2533.63,814.00
2534.47,1039.00
2535.32,765.00
2536.16,1053.00
2537.00,814.00
2537.85,1194.00
2538.69,896.00
2539.53,1124.00
2540.38,838.00
2541.22,1124.00
2542.06,803.00
2542.90,1194.00
2543.75,759.00
2544.59,1142.00
2545.43,826.00
2546.27,1056.00
2547.11,800.00
2547.95,1240.00
2548.79,849.00
2549.64,1184.00
2550.48,740.00
2551.32,1253.00
2552.16,789.00
2553.00,1189.00
2553.84,816.00
2554.67,1014.00
2555.51,826.00
2556.35,1207.00
2557.19,741.00
2558.03,1044.00
2558.87,790.00
2559.71,1178.00
2560.54,799.00
2561.38,1091.00
2562.22,816.00
2563.06,1087.00
2563.89,807.00
2564.73,1092.00
2565.57,854.00
2566.40,1084.00
2567.24,683.00
2568.07,1167.00
2568.91,862.00
2569.75,1126.00
2570.58,787.00
2571.42,1040.00
2572.25,871.00
2573.09,1165.00
2573.92,784.00
2574.75,1163.00
2575.59,659.00
2576.42,1163.00
2577.26,901.00
2578.09,1196.00
2578.92,747.00
2579.76,1243.00
2580.59,806.00
2581.42,1142.00
2582.25,856.00
2583.09,1216.00
2583.92,859.00
2584.75,1181.00
2585.58,769.00
2586.41,1302.00
2587.24,840.00
2588.07,1244.00
2588.91,749.00
2589.74,1240.00
2590.57,744.00
2591.40,1126.00
2592.23,764.00
2593.06,1163.00
2593.89,827.00
2594.72,1221.00
2595.54,793.00
2596.37,1286.00
2597.20,803.00
2598.03,1281.00
2598.86,777.00
2599.69,1210.00
2600.52,854.00
2601.34,1057.00
2602.17,817.00
2603.00,1275.00
2603.82,822.00
2604.65,1199.00
2605.48,914.00
2606.30,1135.00
2607.13,792.00
2607.96,1310.00
2608.78,776.00
2609.61,1336.00
2610.43,886.00
2611.26,1167.00
2612.08,709.00
2612.91,1282.00
2613.73,757.00
2614.56,1260.00
2615.38,842.00
2616.21,1168.00
2617.03,778.00
2617.86,1206.00
2618.68,820.00
2619.50,1341.00
2620.33,779.00
2621.15,1107.00
2621.97,809.00
2622.79,1228.00
2623.62,768.00
2624.44,1246.00
2625.26,909.00
2626.08,1169.00
2626.90,870.00
2627.72,1256.00
2628.55,912.00
2629.37,1260.00
2630.19,785.00
2631.01,1217.00
2631.83,884.00
2632.65,1171.00
2633.47,805.00
2634.29,1177.00
2635.11,762.00
2635.93,1153.00
2636.75,898.00
2637.57,1364.00
2638.39,804.00
2639.20,1297.00
2640.02,881.00
2640.84,1206.00
2641.66,890.00
2642.48,1353.00
2643.29,850.00
2644.11,1291.00
2644.93,852.00
2645.75,1133.00
2646.56,765.00
2647.38,1239.00
2648.20,778.00
2649.01,0.00
2649.83,0.00
2650.65,0.00
2651.46,0.00
2652.28,0.00
