ENLIGHTEN Version,1.7.2
Measurement ID,20190716-220842-696640-WP-00438
Serial Number,WP-00438
Label,ibuprofen
Integration Time,1000
Timestamp,2019-07-16 22:08:42.696640
Note,
Temperature,-99
CCD C0,807.1400146484375
CCD C1,0.11761099845170975
CCD C2,-1.6414700439781882e-05
CCD C3,2.3293600381890656e-09
CCD Offset,0
CCD Gain,8.0
Laser Wavelength,785.0
Laser Enable,True
Laser Power,100.0
Laser Temperature,-99
Pixel Count,1952

Wavenumber,Processed
349.43,0.00
351.23,0.00
353.04,0.00
354.84,4706.00
356.64,4254.00
358.44,4601.00
360.24,4337.00
362.04,4792.00
363.84,4269.00
365.64,4774.00
367.43,4309.00
369.23,4780.00
371.02,4412.00
372.81,4422.00
374.60,4051.00
376.39,4587.00
378.18,3971.00
379.97,4083.00
381.76,3845.00
383.55,4166.00
385.33,3728.00
387.11,3683.00
388.90,3636.00
390.68,3781.00
392.46,3646.00
394.24,3887.00
396.02,3722.00
397.80,3857.00
399.58,3640.00
401.35,3714.00
403.13,3842.00
404.90,4105.00
406.68,4233.00
408.45,4835.00
410.22,4182.00
411.99,4762.00
413.76,4655.00
415.53,5080.00
417.30,4942.00
419.06,5376.00
420.83,5136.00
422.59,5651.00
424.35,5072.00
426.12,5360.00
427.88,5108.00
429.64,5525.00
431.40,4873.00
433.16,5370.00
434.91,4900.00
436.67,5073.00
438.43,4567.00
440.18,4544.00
441.93,4190.00
443.69,3943.00
445.44,3670.00
447.19,3511.00
448.94,3177.00
450.69,3498.00
452.43,3093.00
454.18,3163.00
455.92,3032.00
457.67,3058.00
459.41,2979.00
461.16,2896.00
462.90,2819.00
464.64,2853.00
466.38,2694.00
468.12,2718.00
469.85,2743.00
471.59,2982.00
473.33,2675.00
475.06,2746.00
476.80,3048.00
478.53,2934.00
480.26,2913.00
481.99,3254.00
483.72,3152.00
485.45,3554.00
487.18,3354.00
488.91,3400.00
490.63,3313.00
492.36,3588.00
494.08,3551.00
495.80,3841.00
497.53,3525.00
499.25,3870.00
500.97,3627.00
502.69,4014.00
504.41,3807.00
506.12,3863.00
507.84,3878.00
509.56,3706.00
511.27,3517.00
512.98,3657.00
514.70,3428.00
516.41,3505.00
518.12,3380.00
519.83,3466.00
521.54,3145.00
523.25,3283.00
524.95,3031.00
526.66,3201.00
528.36,2999.00
530.07,2994.00
531.77,2920.00
533.47,2824.00
535.18,2655.00
536.88,2703.00
538.58,2608.00
540.27,2687.00
541.97,2458.00
543.67,2556.00
545.36,2369.00
547.06,2490.00
548.75,2509.00
550.45,2333.00
552.14,2520.00
553.83,2434.00
555.52,2351.00
557.21,2504.00
558.90,2532.00
560.58,2750.00
562.27,2393.00
563.96,2611.00
565.64,2505.00
567.32,2658.00
569.01,3035.00
570.69,2983.00
572.37,2820.00
574.05,3024.00
575.73,3126.00
577.41,3065.00
579.08,3292.00
580.76,3449.00
582.44,3399.00
584.11,3540.00
585.78,3573.00
587.46,3409.00
589.13,3405.00
590.80,3333.00
592.47,3358.00
594.14,3229.00
595.81,3096.00
597.47,3277.00
599.14,2841.00
600.80,3268.00
602.47,2938.00
604.13,3089.00
605.79,2796.00
607.46,3118.00
609.12,2923.00
610.78,3101.00
612.44,3058.00
614.09,3534.00
615.75,3634.00
617.41,4155.00
619.06,4169.00
620.72,4925.00
622.37,4910.00
624.02,5617.00
625.67,5633.00
627.33,5933.00
628.97,6223.00
630.62,6708.00
632.27,6603.00
633.92,6877.00
635.57,6828.00
637.21,6978.00
638.86,6682.00
640.50,6492.00
642.14,6188.00
643.78,5984.00
645.42,5579.00
647.06,5483.00
648.70,5002.00
650.34,4761.00
651.98,4536.00
653.62,4738.00
655.25,4403.00
656.89,4537.00
658.52,4278.00
660.15,4427.00
661.79,4115.00
663.42,4199.00
665.05,4204.00
666.68,4057.00
668.31,3848.00
669.93,4095.00
671.56,4004.00
673.19,4048.00
674.81,3633.00
676.43,3710.00
678.06,3528.00
679.68,3401.00
681.30,3317.00
682.92,3114.00
684.54,2912.00
686.16,2971.00
687.78,3026.00
689.40,3142.00
691.01,3009.00
692.63,2959.00
694.24,2972.00
695.86,2994.00
697.47,2970.00
699.08,2973.00
700.69,2886.00
702.30,3053.00
703.91,2928.00
705.52,3025.00
707.13,2874.00
708.74,2846.00
710.34,2832.00
711.95,2809.00
713.55,2665.00
715.15,2782.00
716.76,2782.00
718.36,2883.00
719.96,2689.00
721.56,2659.00
723.16,2856.00
724.76,2873.00
726.35,2643.00
727.95,2960.00
729.55,3113.00
731.14,3285.00
732.73,3461.00
734.33,3754.00
735.92,4008.00
737.51,4528.00
739.10,4738.00
740.69,5224.00
742.28,5235.00
743.87,5725.00
745.46,5948.00
747.04,6201.00
748.63,6457.00
750.21,6360.00
751.80,6481.00
753.38,6709.00
754.96,6293.00
756.54,6277.00
758.12,5952.00
759.70,5898.00
761.28,5451.00
762.86,5819.00
764.44,5530.00
766.01,5701.00
767.59,5824.00
769.16,6105.00
770.74,6304.00
772.31,6857.00
773.88,6758.00
775.45,7273.00
777.02,7820.00
778.59,8468.00
780.16,8495.00
781.73,9254.00
783.30,8854.00
784.86,9206.00
786.43,9113.00
787.99,9061.00
789.56,8987.00
791.12,9003.00
792.68,8236.00
794.24,8701.00
795.80,7951.00
797.36,8303.00
798.92,7618.00
800.48,7993.00
802.04,7606.00
803.59,7862.00
805.15,7823.00
806.70,8595.00
808.26,8556.00
809.81,9463.00
811.36,9792.00
812.91,10835.00
814.46,10566.00
816.01,11605.00
817.56,11876.00
819.11,13228.00
820.66,13289.00
822.20,14426.00
823.75,14443.00
825.30,16077.00
826.84,15551.00
828.38,16348.00
829.93,15776.00
831.47,16958.00
833.01,16127.00
834.55,16738.00
836.09,16185.00
837.63,16612.00
839.16,15665.00
840.70,15217.00
842.24,14289.00
843.77,14528.00
845.31,13221.00
846.84,13033.00
848.37,11579.00
849.90,11336.00
851.44,9975.00
852.97,10299.00
854.50,8852.00
856.03,9107.00
857.55,7644.00
859.08,7688.00
860.61,7333.00
862.13,6732.00
863.66,6503.00
865.18,6384.00
866.70,5965.00
868.23,6292.00
869.75,5761.00
871.27,6238.00
872.79,5883.00
874.31,6155.00
875.83,5876.00
877.35,6369.00
878.86,6019.00
880.38,6374.00
881.89,6026.00
883.41,6586.00
884.92,6246.00
886.44,6333.00
887.95,6226.00
889.46,6357.00
890.97,5777.00
892.48,5991.00
893.99,5517.00
895.50,5926.00
897.01,5230.00
898.51,5216.00
900.02,5086.00
901.52,4964.00
903.03,4820.00
904.53,4824.00
906.04,4364.00
907.54,4517.00
909.04,4199.00
910.54,4434.00
912.04,4245.00
913.54,4296.00
915.04,4026.00
916.53,4260.00
918.03,4060.00
919.53,4195.00
921.02,4189.00
922.52,4423.00
924.01,4116.00
925.50,4450.00
927.00,4502.00
928.49,4787.00
929.98,4717.00
931.47,5036.00
932.96,5021.00
934.44,5320.00
935.93,5571.00
937.42,6029.00
938.90,6142.00
940.39,6545.00
941.87,6714.00
943.36,6938.00
944.84,6929.00
946.32,7357.00
947.80,7263.00
949.29,7899.00
950.77,7314.00
952.24,7763.00
953.72,7338.00
955.20,7333.00
956.68,7100.00
958.15,6936.00
959.63,6596.00
961.10,6487.00
962.58,6015.00
964.05,5785.00
965.52,5201.00
967.00,5232.00
968.47,4784.00
969.94,4894.00
971.41,4455.00
972.87,4296.00
974.34,4212.00
975.81,4317.00
977.28,4163.00
978.74,4367.00
980.21,4015.00
981.67,4466.00
983.13,4412.00
984.60,4451.00
986.06,4638.00
987.52,4928.00
988.98,5130.00
990.44,5352.00
991.90,5666.00
993.36,6027.00
994.82,6097.00
996.27,6424.00
997.73,6873.00
999.18,7313.00
1000.64,7035.00
1002.09,7581.00
1003.55,7531.00
1005.00,7534.00
1006.45,6847.00
1007.90,6804.00
1009.35,6548.00
1010.80,6435.00
1012.25,5659.00
1013.70,5618.00
1015.14,4962.00
1016.59,4743.00
1018.04,4635.00
1019.48,4547.00
1020.93,4104.00
1022.37,4087.00
1023.81,3763.00
1025.25,3641.00
1026.70,3384.00
1028.14,3467.00
1029.58,3355.00
1031.02,3355.00
1032.45,3245.00
1033.89,3110.00
1035.33,3137.00
1036.77,3269.00
1038.20,2978.00
1039.64,3416.00
1041.07,3399.00
1042.50,3117.00
1043.94,3356.00
1045.37,3408.00
1046.80,3251.00
1048.23,3665.00
1049.66,3638.00
1051.09,3967.00
1052.52,3669.00
1053.95,3864.00
1055.37,3921.00
1056.80,3853.00
1058.23,3825.00
1059.65,4109.00
1061.08,4069.00
1062.50,4454.00
1063.92,4216.00
1065.34,4464.00
1066.76,4514.00
1068.19,4689.00
1069.61,4788.00
1071.02,4674.00
1072.44,4740.00
1073.86,4972.00
1075.28,4712.00
1076.69,5025.00
1078.11,4893.00
1079.53,4996.00
1080.94,4862.00
1082.35,5015.00
1083.77,4947.00
1085.18,5202.00
1086.59,4932.00
1088.00,5285.00
1089.41,5453.00
1090.82,5718.00
1092.23,5589.00
1093.64,6080.00
1095.04,5993.00
1096.45,6132.00
1097.86,6562.00
1099.26,6580.00
1100.67,6652.00
1102.07,6937.00
1103.47,6778.00
1104.88,7453.00
1106.28,7238.00
1107.68,7685.00
1109.08,7385.00
1110.48,8136.00
1111.88,8070.00
1113.28,8850.00
1114.67,8736.00
1116.07,9392.00
1117.47,8788.00
1118.86,9224.00
1120.26,8529.00
1121.65,9017.00
1123.05,8602.00
1124.44,8725.00
1125.83,8091.00
1127.22,8204.00
1128.61,7537.00
1130.00,7482.00
1131.39,7037.00
1132.78,7306.00
1134.17,6745.00
1135.56,6522.00
1136.94,6181.00
1138.33,6308.00
1139.72,5812.00
1141.10,6095.00
1142.48,5750.00
1143.87,5764.00
1145.25,5910.00
1146.63,6063.00
1148.01,5983.00
1149.39,6348.00
1150.77,6063.00
1152.15,6573.00
1153.53,6681.00
1154.91,6867.00
1156.29,7060.00
1157.66,7625.00
1159.04,8085.00
1160.41,8607.00
1161.79,9109.00
1163.16,9734.00
1164.54,10026.00
1165.91,11446.00
1167.28,11775.00
1168.65,12509.00
1170.02,13117.00
1171.39,14100.00
1172.76,14084.00
1174.13,15447.00
1175.50,16073.00
1176.86,17227.00
1178.23,17737.00
1179.60,19662.00
1180.96,20198.00
1182.33,21996.00
1183.69,22518.00
1185.05,23883.00
1186.42,24563.00
1187.78,25075.00
1189.14,24452.00
1190.50,25080.00
1191.86,24442.00
1193.22,24313.00
1194.58,22674.00
1195.94,22459.00
1197.29,21119.00
1198.65,20422.00
1200.01,19645.00
1201.36,19163.00
1202.72,18114.00
1204.07,18090.00
1205.42,17366.00
1206.78,17110.00
1208.13,16623.00
1209.48,16315.00
1210.83,15665.00
1212.18,15192.00
1213.53,14648.00
1214.88,14513.00
1216.23,13303.00
1217.58,13053.00
1218.92,12550.00
1220.27,11874.00
1221.61,11217.00
1222.96,11623.00
1224.30,10428.00
1225.65,10475.00
1226.99,10205.00
1228.33,10041.00
1229.67,9359.00
1231.01,9581.00
1232.36,8983.00
1233.70,8968.00
1235.03,8687.00
1236.37,8793.00
1237.71,8569.00
1239.05,8933.00
1240.38,8441.00
1241.72,8594.00
1243.06,8649.00
1244.39,8548.00
1245.72,8352.00
1247.06,8634.00
1248.39,8105.00
1249.72,8752.00
1251.05,8850.00
1252.39,8791.00
1253.72,8709.00
1255.05,8868.00
1256.37,8678.00
1257.70,9005.00
1259.03,8947.00
1260.36,9208.00
1261.68,9014.00
1263.01,9169.00
1264.33,9009.00
1265.66,9443.00
1266.98,8915.00
1268.31,9049.00
1269.63,9114.00
1270.95,9555.00
1272.27,9251.00
1273.59,9287.00
1274.91,9536.00
1276.23,9792.00
1277.55,9840.00
1278.87,10262.00
1280.19,9825.00
1281.51,10407.00
1282.82,10682.00
1284.14,11064.00
1285.45,10954.00
1286.77,11219.00
1288.08,11242.00
1289.39,11572.00
1290.71,11401.00
1292.02,11789.00
1293.33,11837.00
1294.64,11930.00
1295.95,11846.00
1297.26,11503.00
1298.57,11827.00
1299.88,11348.00
1301.19,11219.00
1302.49,11643.00
1303.80,11083.00
1305.11,11541.00
1306.41,10900.00
1307.72,11270.00
1309.02,10797.00
1310.32,11382.00
1311.63,11388.00
1312.93,11218.00
1314.23,11250.00
1315.53,11915.00
1316.83,11389.00
1318.13,11613.00
1319.43,11769.00
1320.73,11707.00
1322.03,11897.00
1323.32,11868.00
1324.62,11741.00
1325.92,12587.00
1327.21,12235.00
1328.51,12561.00
1329.80,12648.00
1331.10,13058.00
1332.39,12880.00
1333.68,13268.00
1334.97,13177.00
1336.27,13355.00
1337.56,13255.00
1338.85,13301.00
1340.14,13188.00
1341.42,13501.00
1342.71,13139.00
1344.00,14099.00
1345.29,13317.00
1346.57,13714.00
1347.86,13691.00
1349.15,14032.00
1350.43,13458.00
1351.71,13822.00
1353.00,13059.00
1354.28,13605.00
1355.56,13144.00
1356.85,13534.00
1358.13,13254.00
1359.41,13078.00
1360.69,12635.00
1361.97,13206.00
1363.25,12782.00
1364.52,12926.00
1365.80,12575.00
1367.08,13136.00
1368.35,12451.00
1369.63,12767.00
1370.91,12718.00
1372.18,12404.00
1373.45,12458.00
1374.73,12363.00
1376.00,12503.00
1377.27,12766.00
1378.54,12360.00
1379.82,12242.00
1381.09,11992.00
1382.36,12481.00
1383.63,12255.00
1384.89,12315.00
1386.16,12278.00
1387.43,12486.00
1388.70,12524.00
1389.96,12436.00
1391.23,12383.00
1392.50,12510.00
1393.76,12541.00
1395.02,12715.00
1396.29,12821.00
1397.55,12723.00
1398.81,12828.00
1400.08,13010.00
1401.34,13192.00
1402.60,13272.00
1403.86,13812.00
1405.12,13840.00
1406.38,13689.00
1407.63,13984.00
1408.89,13859.00
1410.15,13868.00
1411.41,13803.00
1412.66,14391.00
1413.92,14141.00
1415.17,14646.00
1416.43,14930.00
1417.68,15114.00
1418.93,15158.00
1420.19,15351.00
1421.44,15201.00
1422.69,15649.00
1423.94,15620.00
1425.19,16341.00
1426.44,15973.00
1427.69,16232.00
1428.94,16006.00
1430.19,16109.00
1431.43,16387.00
1432.68,16483.00
1433.93,16291.00
1435.17,16503.00
1436.42,17095.00
1437.66,17023.00
1438.91,16921.00
1440.15,17316.00
1441.39,17424.00
1442.64,17467.00
1443.88,18160.00
1445.12,18055.00
1446.36,18555.00
1447.60,18818.00
1448.84,18993.00
1450.08,18846.00
1451.32,19596.00
1452.56,19484.00
1453.79,19734.00
1455.03,19532.00
1456.27,18904.00
1457.50,19542.00
1458.74,19553.00
1459.97,19273.00
1461.21,19161.00
1462.44,19015.00
1463.67,19249.00
1464.91,18105.00
1466.14,18550.00
1467.37,18064.00
1468.60,17615.00
1469.83,17451.00
1471.06,17081.00
1472.29,16761.00
1473.52,16611.00
1474.75,16510.00
1475.97,15829.00
1477.20,15635.00
1478.43,15111.00
1479.65,15071.00
1480.88,14997.00
1482.10,14684.00
1483.33,14412.00
1484.55,14447.00
1485.77,13797.00
1487.00,13814.00
1488.22,13776.00
1489.44,13634.00
1490.66,13140.00
1491.88,13445.00
1493.10,12990.00
1494.32,13057.00
1495.54,12610.00
1496.76,12710.00
1497.97,12260.00
1499.19,12614.00
1500.41,12293.00
1501.62,12102.00
1502.84,11965.00
1504.05,11817.00
1505.27,12165.00
1506.48,12028.00
1507.70,11613.00
1508.91,11853.00
1510.12,11424.00
1511.33,11869.00
1512.54,11810.00
1513.75,11748.00
1514.96,11637.00
1516.17,11821.00
1517.38,11532.00
1518.59,11361.00
1519.80,11217.00
1521.01,11601.00
1522.21,11278.00
1523.42,11223.00
1524.63,11301.00
1525.83,11425.00
1527.04,11097.00
1528.24,11462.00
1529.44,11089.00
1530.65,11102.00
1531.85,11076.00
1533.05,10812.00
1534.25,10787.00
1535.45,11321.00
1536.65,10577.00
1537.85,10805.00
1539.05,10697.00
1540.25,10617.00
1541.45,10555.00
1542.65,10691.00
1543.85,10393.00
1545.04,10409.00
1546.24,10386.00
1547.44,10820.00
1548.63,10226.00
1549.83,10384.00
1551.02,10174.00
1552.21,10429.00
1553.41,10403.00
1554.60,10131.00
1555.79,10334.00
1556.98,10399.00
1558.17,10138.00
1559.37,10142.00
1560.56,10249.00
1561.74,10189.00
1562.93,10018.00
1564.12,10199.00
1565.31,9866.00
1566.50,10141.00
1567.68,9934.00
1568.87,10476.00
1570.06,9885.00
1571.24,10478.00
1572.43,9952.00
1573.61,9961.00
1574.80,9946.00
1575.98,10329.00
1577.16,10048.00
1578.34,10501.00
1579.53,10091.00
1580.71,10199.00
1581.89,10007.00
1583.07,10147.00
1584.25,10204.00
1585.43,10084.00
1586.61,10423.00
1587.78,10207.00
1588.96,10456.00
1590.14,10846.00
1591.32,10880.00
1592.49,11041.00
1593.67,11158.00
1594.84,11749.00
1596.02,11564.00
1597.19,11507.00
1598.37,12201.00
1599.54,12321.00
1600.71,12414.00
1601.88,13086.00
1603.06,13385.00
1604.23,13127.00
1605.40,13784.00
1606.57,14243.00
1607.74,14298.00
1608.91,14673.00
1610.07,14971.00
1611.24,15656.00
1612.41,15466.00
1613.58,16069.00
1614.74,15889.00
1615.91,15620.00
1617.08,15891.00
1618.24,16154.00
1619.41,15581.00
1620.57,15500.00
1621.73,15203.00
1622.90,14168.00
1624.06,13799.00
1625.22,13269.00
1626.38,12704.00
1627.54,12128.00
1628.70,11570.00
1629.87,11054.00
1631.02,10780.00
1632.18,10297.00
1633.34,10050.00
1634.50,9775.00
1635.66,9245.00
1636.82,9517.00
1637.97,8832.00
1639.13,8877.00
1640.28,8505.00
1641.44,8569.00
1642.59,8662.00
1643.75,8332.00
1644.90,8374.00
1646.06,8292.00
1647.21,8108.00
1648.36,7950.00
1649.51,7974.00
1650.66,7788.00
1651.81,7907.00
1652.97,7785.00
1654.11,7664.00
1655.26,7516.00
1656.41,7595.00
1657.56,7966.00
1658.71,7638.00
1659.86,7664.00
1661.00,7556.00
1662.15,7654.00
1663.30,7869.00
1664.44,7373.00
1665.59,7764.00
1666.73,7476.00
1667.88,7574.00
1669.02,7451.00
1670.16,7476.00
1671.30,7676.00
1672.45,7565.00
1673.59,7587.00
1674.73,7668.00
1675.87,7468.00
1677.01,7478.00
1678.15,7504.00
1679.29,7609.00
1680.43,7681.00
1681.57,7319.00
1682.70,7894.00
1683.84,7606.00
1684.98,7762.00
1686.12,7380.00
1687.25,7374.00
1688.39,7563.00
1689.52,7776.00
1690.66,7381.00
1691.79,7484.00
1692.92,7647.00
1694.06,7587.00
1695.19,7699.00
1696.32,7382.00
1697.45,7555.00
1698.58,7474.00
1699.72,7489.00
1700.85,7561.00
1701.98,7712.00
1703.10,7350.00
1704.23,7440.00
1705.36,7300.00
1706.49,7416.00
1707.62,7792.00
1708.74,7322.00
1709.87,7123.00
1711.00,7477.00
1712.12,7526.00
1713.25,7444.00
1714.37,7377.00
1715.50,7375.00
1716.62,7490.00
1717.74,7548.00
1718.87,7578.00
1719.99,7499.00
1721.11,7306.00
1722.23,7553.00
1723.35,7355.00
1724.47,7341.00
1725.59,7493.00
1726.71,7319.00
1727.83,7511.00
1728.95,7337.00
1730.07,6880.00
1731.19,7050.00
1732.30,7437.00
1733.42,7102.00
1734.54,7079.00
1735.65,7088.00
1736.77,7071.00
1737.88,6853.00
1739.00,7094.00
1740.11,6948.00
1741.23,7215.00
1742.34,7192.00
1743.45,7188.00
1744.56,6751.00
1745.68,7110.00
1746.79,6888.00
1747.90,7077.00
1749.01,6884.00
1750.12,7132.00
1751.23,7000.00
1752.34,6660.00
1753.45,6849.00
1754.55,7004.00
1755.66,6695.00
1756.77,6946.00
1757.88,6871.00
1758.98,6673.00
1760.09,6729.00
1761.19,6755.00
1762.30,6559.00
1763.40,6876.00
1764.51,6613.00
1765.61,6550.00
1766.71,6669.00
1767.82,6502.00
1768.92,6475.00
1770.02,6964.00
1771.12,6438.00
1772.22,6283.00
1773.32,6447.00
1774.42,6464.00
1775.52,6259.00
1776.62,6251.00
1777.72,6155.00
1778.82,6664.00
1779.92,6375.00
1781.01,6535.00
1782.11,6090.00
1783.21,6384.00
1784.30,6135.00
1785.40,6036.00
1786.50,6016.00
1787.59,6100.00
1788.68,6074.00
1789.78,6334.00
1790.87,5815.00
1791.96,6182.00
1793.06,5949.00
1794.15,5878.00
1795.24,5620.00
1796.33,5950.00
1797.42,6019.00
1798.51,6009.00
1799.60,5988.00
1800.69,5826.00
1801.78,5598.00
1802.87,5813.00
1803.96,5271.00
1805.05,5601.00
1806.13,5524.00
1807.22,5803.00
1808.31,5293.00
1809.39,5332.00
1810.48,5585.00
1811.56,5418.00
1812.65,5105.00
1813.73,5507.00
1814.82,5441.00
1815.90,5129.00
1816.98,5525.00
1818.07,5451.00
1819.15,5275.00
1820.23,5314.00
1821.31,5276.00
1822.39,5235.00
1823.47,5073.00
1824.55,5113.00
1825.63,4940.00
1826.71,5249.00
1827.79,5040.00
1828.87,5089.00
1829.95,4794.00
1831.02,5045.00
1832.10,4770.00
1833.18,5048.00
1834.25,4993.00
1835.33,4927.00
1836.40,4696.00
1837.48,4893.00
1838.55,4685.00
1839.63,4487.00
1840.70,4890.00
1841.77,4806.00
1842.85,4457.00
1843.92,4618.00
1844.99,4902.00
1846.06,4382.00
1847.13,4322.00
1848.20,4458.00
1849.28,4525.00
1850.34,4413.00
1851.41,4469.00
1852.48,4298.00
1853.55,4463.00
1854.62,4185.00
1855.69,4370.00
1856.76,4291.00
1857.82,4394.00
1858.89,4367.00
1859.95,4320.00
1861.02,4034.00
1862.09,4261.00
1863.15,4114.00
1864.21,4193.00
1865.28,4334.00
1866.34,4076.00
1867.41,4198.00
1868.47,4231.00
1869.53,4161.00
1870.59,4132.00
1871.65,4191.00
1872.71,3934.00
1873.78,4160.00
1874.84,4103.00
1875.90,3746.00
1876.96,4092.00
1878.01,3982.00
1879.07,3995.00
1880.13,3964.00
1881.19,3968.00
1882.25,3856.00
1883.30,4046.00
1884.36,3954.00
1885.42,3786.00
1886.47,3765.00
1887.53,3643.00
1888.58,3836.00
1889.64,3982.00
1890.69,4009.00
1891.74,3644.00
1892.80,3812.00
1893.85,3723.00
1894.90,3928.00
1895.96,3777.00
1897.01,3826.00
1898.06,3834.00
1899.11,3669.00
1900.16,3644.00
1901.21,3860.00
1902.26,3699.00
1903.31,3736.00
1904.36,3795.00
1905.41,3785.00
1906.45,3626.00
1907.50,3549.00
1908.55,3567.00
1909.60,3606.00
1910.64,3279.00
1911.69,3706.00
1912.73,3740.00
1913.78,3722.00
1914.82,3731.00
1915.87,3738.00
1916.91,3636.00
1917.96,3567.00
1919.00,3391.00
1920.04,3527.00
1921.08,3636.00
1922.13,3652.00
1923.17,3510.00
1924.21,3608.00
1925.25,3609.00
1926.29,3458.00
1927.33,3476.00
1928.37,3244.00
1929.41,3444.00
1930.45,3445.00
1931.49,3514.00
1932.53,3584.00
1933.56,3518.00
1934.60,3408.00
1935.64,3591.00
1936.67,3437.00
1937.71,3399.00
1938.75,3361.00
1939.78,3363.00
1940.82,3358.00
1941.85,3421.00
1942.89,3521.00
1943.92,3277.00
1944.95,3303.00
1945.99,3248.00
1947.02,3371.00
1948.05,3237.00
1949.08,3454.00
1950.11,3332.00
1951.15,3390.00
1952.18,3409.00
1953.21,3412.00
1954.24,3313.00
1955.27,3485.00
1956.30,3290.00
1957.32,3160.00
1958.35,3450.00
1959.38,3261.00
1960.41,3300.00
1961.44,3205.00
1962.46,3256.00
1963.49,3238.00
1964.51,3202.00
1965.54,3039.00
1966.57,3090.00
1967.59,3185.00
1968.62,3124.00
1969.64,3232.00
1970.66,3293.00
1971.69,3120.00
1972.71,3039.00
1973.73,3219.00
1974.75,3152.00
1975.78,3085.00
1976.80,3068.00
1977.82,3261.00
1978.84,2855.00
1979.86,3105.00
1980.88,3080.00
1981.90,3131.00
1982.92,3064.00
1983.94,3051.00
1984.96,3089.00
1985.98,3061.00
1986.99,2963.00
1988.01,2987.00
1989.03,2863.00
1990.04,3096.00
1991.06,2959.00
1992.08,2896.00
1993.09,2889.00
1994.11,2920.00
1995.12,2990.00
1996.14,2836.00
1997.15,2878.00
1998.16,2852.00
1999.18,2722.00
2000.19,2994.00
2001.20,2777.00
2002.21,3068.00
2003.23,2778.00
2004.24,2900.00
2005.25,2740.00
2006.26,2875.00
2007.27,2786.00
2008.28,2898.00
2009.29,2589.00
2010.30,2988.00
2011.31,2881.00
2012.32,2879.00
2013.32,2580.00
2014.33,2730.00
2015.34,2780.00
2016.35,2695.00
2017.35,2654.00
2018.36,2582.00
2019.36,2619.00
2020.37,2736.00
2021.38,2685.00
2022.38,2701.00
2023.38,2423.00
2024.39,2800.00
2025.39,2639.00
2026.40,2822.00
2027.40,2559.00
2028.40,2615.00
2029.40,2526.00
2030.41,2568.00
2031.41,2406.00
2032.41,2503.00
2033.41,2393.00
2034.41,2632.00
2035.41,2398.00
2036.41,2519.00
2037.41,2383.00
2038.41,2402.00
2039.41,2359.00
2040.40,2444.00
2041.40,2153.00
2042.40,2572.00
2043.40,2436.00
2044.39,2415.00
2045.39,2227.00
2046.39,2384.00
2047.38,2305.00
2048.38,2240.00
2049.37,2293.00
2050.37,2104.00
2051.36,2310.00
2052.36,2268.00
2053.35,2181.00
2054.34,2158.00
2055.34,2137.00
2056.33,2184.00
2057.32,2224.00
2058.31,2125.00
2059.30,2064.00
2060.30,2197.00
2061.29,2082.00
2062.28,2032.00
2063.27,1895.00
2064.26,1952.00
2065.25,1947.00
2066.23,2006.00
2067.22,1897.00
2068.21,1980.00
2069.20,1952.00
2070.19,1904.00
2071.17,1711.00
2072.16,1860.00
2073.15,2097.00
2074.13,1878.00
2075.12,1769.00
2076.11,1874.00
2077.09,1895.00
2078.08,1684.00
2079.06,1680.00
2080.04,1709.00
2081.03,1764.00
2082.01,1721.00
2083.00,1647.00
2083.98,1637.00
2084.96,1735.00
2085.94,1548.00
2086.92,1696.00
2087.91,1689.00
2088.89,1666.00
2089.87,1588.00
2090.85,1449.00
2091.83,1559.00
2092.81,1418.00
2093.79,1588.00
2094.77,1543.00
2095.74,1534.00
2096.72,1415.00
2097.70,1325.00
2098.68,1365.00
2099.66,1541.00
2100.63,1473.00
2101.61,1427.00
2102.59,1501.00
2103.56,1507.00
2104.54,1465.00
2105.51,1327.00
2106.49,1433.00
2107.46,1273.00
2108.44,1352.00
2109.41,1289.00
2110.38,1251.00
2111.36,1340.00
2112.33,1374.00
2113.30,1220.00
2114.27,1289.00
2115.25,1168.00
2116.22,1267.00
2117.19,1293.00
2118.16,1041.00
2119.13,1083.00
2120.10,1198.00
2121.07,1256.00
2122.04,993.00
2123.01,1140.00
2123.98,1177.00
2124.95,1100.00
2125.91,1229.00
2126.88,1043.00
2127.85,1017.00
2128.82,1234.00
2129.78,1073.00
2130.75,1129.00
2131.72,1072.00
2132.68,1078.00
2133.65,1038.00
2134.61,1065.00
2135.58,898.00
2136.54,1029.00
2137.51,1091.00
2138.47,1065.00
2139.43,1103.00
2140.40,973.00
2141.36,1018.00
2142.32,966.00
2143.29,1035.00
2144.25,927.00
2145.21,905.00
2146.17,917.00
2147.13,978.00
2148.09,1033.00
2149.05,1110.00
2150.01,1022.00
2150.97,890.00
2151.93,970.00
2152.89,939.00
2153.85,875.00
2154.81,884.00
2155.76,805.00
2156.72,1042.00
2157.68,1049.00
2158.64,854.00
2159.59,964.00
2160.55,997.00
2161.51,908.00
2162.46,1115.00
2163.42,765.00
2164.37,981.00
2165.33,936.00
2166.28,894.00
2167.24,893.00
2168.19,857.00
2169.14,941.00
2170.10,895.00
2171.05,880.00
2172.00,885.00
2172.95,899.00
2173.91,948.00
2174.86,945.00
2175.81,860.00
2176.76,925.00
2177.71,852.00
2178.66,899.00
2179.61,821.00
2180.56,864.00
2181.51,936.00
2182.46,998.00
2183.41,964.00
2184.36,982.00
2185.30,974.00
2186.25,902.00
2187.20,971.00
2188.15,852.00
2189.09,840.00
2190.04,904.00
2190.99,840.00
2191.93,1091.00
2192.88,886.00
2193.82,885.00
2194.77,1001.00
2195.71,891.00
2196.66,874.00
2197.60,827.00
2198.54,908.00
2199.49,975.00
2200.43,863.00
2201.37,911.00
2202.32,984.00
2203.26,890.00
2204.20,1000.00
2205.14,1004.00
2206.08,914.00
2207.02,992.00
2207.96,1031.00
2208.90,1045.00
2209.84,989.00
2210.78,955.00
2211.72,917.00
2212.66,904.00
2213.60,1089.00
2214.54,1077.00
2215.48,957.00
2216.42,961.00
2217.35,984.00
2218.29,1128.00
2219.23,962.00
2220.16,990.00
2221.10,916.00
2222.04,1013.00
2222.97,1121.00
2223.91,1061.00
2224.84,898.00
2225.78,1018.00
2226.71,875.00
2227.65,1090.00
2228.58,975.00
2229.51,1008.00
2230.45,984.00
2231.38,1229.00
2232.31,1043.00
2233.24,1065.00
2234.18,1004.00
2235.11,1093.00
2236.04,1104.00
2236.97,1050.00
2237.90,864.00
2238.83,1029.00
2239.76,1048.00
2240.69,986.00
2241.62,900.00
2242.55,1052.00
2243.48,1009.00
2244.41,1100.00
2245.34,988.00
2246.27,1154.00
2247.19,1077.00
2248.12,1065.00
2249.05,1101.00
2249.98,1195.00
2250.90,1021.00
2251.83,1128.00
2252.75,1066.00
2253.68,1009.00
2254.61,1303.00
2255.53,1092.00
2256.46,1047.00
2257.38,1080.00
2258.31,982.00
2259.23,951.00
2260.15,953.00
2261.08,1049.00
2262.00,1002.00
2262.92,997.00
2263.85,893.00
2264.77,963.00
2265.69,913.00
2266.61,1089.00
2267.53,1113.00
2268.45,1108.00
2269.37,1016.00
2270.30,1076.00
2271.22,1035.00
2272.14,971.00
2273.05,966.00
2273.97,1047.00
2274.89,957.00
2275.81,955.00
2276.73,1034.00
2277.65,945.00
2278.57,984.00
2279.48,1075.00
2280.40,1025.00
2281.32,936.00
2282.24,1002.00
2283.15,1096.00
2284.07,1095.00
2284.98,1064.00
2285.90,946.00
2286.82,999.00
2287.73,1005.00
2288.65,945.00
2289.56,997.00
2290.47,968.00
2291.39,1052.00
2292.30,884.00
2293.21,904.00
2294.13,921.00
2295.04,1074.00
2295.95,986.00
2296.87,988.00
2297.78,1005.00
2298.69,940.00
2299.60,936.00
2300.51,803.00
2301.42,927.00
2302.33,961.00
2303.24,958.00
2304.15,893.00
2305.06,960.00
2305.97,838.00
2306.88,1051.00
2307.79,817.00
2308.70,845.00
2309.61,860.00
2310.51,830.00
2311.42,822.00
2312.33,972.00
2313.24,806.00
2314.14,755.00
2315.05,765.00
2315.96,867.00
2316.86,981.00
2317.77,860.00
2318.67,897.00
2319.58,825.00
2320.48,883.00
2321.39,716.00
2322.29,789.00
2323.20,936.00
2324.10,805.00
2325.00,810.00
2325.91,712.00
2326.81,705.00
2327.71,731.00
2328.62,722.00
2329.52,659.00
2330.42,795.00
2331.32,719.00
2332.22,688.00
2333.12,802.00
2334.03,819.00
2334.93,620.00
2335.83,680.00
2336.73,601.00
2337.63,749.00
2338.53,660.00
2339.42,551.00
2340.32,724.00
2341.22,714.00
2342.12,704.00
2343.02,586.00
2343.92,562.00
2344.81,676.00
2345.71,660.00
2346.61,643.00
2347.51,628.00
2348.40,599.00
2349.30,580.00
2350.19,646.00
2351.09,563.00
2351.98,613.00
2352.88,568.00
2353.77,585.00
2354.67,631.00
2355.56,514.00
2356.46,596.00
2357.35,640.00
2358.25,500.00
2359.14,664.00
2360.03,557.00
2360.92,587.00
2361.82,572.00
2362.71,563.00
2363.60,577.00
2364.49,572.00
2365.38,465.00
2366.28,605.00
2367.17,519.00
2368.06,675.00
2368.95,494.00
2369.84,641.00
2370.73,567.00
2371.62,545.00
2372.51,626.00
2373.40,605.00
2374.28,571.00
2375.17,529.00
2376.06,687.00
2376.95,668.00
2377.84,562.00
2378.72,569.00
2379.61,550.00
2380.50,574.00
2381.39,653.00
2382.27,580.00
2383.16,570.00
2384.04,661.00
2384.93,566.00
2385.81,607.00
2386.70,589.00
2387.59,597.00
2388.47,502.00
2389.35,540.00
2390.24,590.00
2391.12,609.00
2392.01,596.00
2392.89,558.00
2393.77,532.00
2394.66,624.00
2395.54,557.00
2396.42,571.00
2397.30,487.00
2398.18,597.00
2399.07,601.00
2399.95,498.00
2400.83,561.00
2401.71,766.00
2402.59,591.00
2403.47,512.00
2404.35,533.00
2405.23,610.00
2406.11,452.00
2406.99,473.00
2407.87,515.00
2408.75,689.00
2409.62,631.00
2410.50,698.00
2411.38,615.00
2412.26,651.00
2413.14,661.00
2414.01,467.00
2414.89,686.00
2415.77,765.00
2416.64,589.00
2417.52,734.00
2418.40,584.00
2419.27,545.00
2420.15,556.00
2421.02,621.00
2421.90,666.00
2422.77,594.00
2423.65,578.00
2424.52,727.00
2425.40,610.00
2426.27,588.00
2427.14,613.00
2428.02,583.00
2428.89,480.00
2429.76,668.00
2430.64,613.00
2431.51,523.00
2432.38,608.00
2433.25,599.00
2434.12,625.00
2434.99,554.00
2435.87,467.00
2436.74,508.00
2437.61,645.00
2438.48,546.00
2439.35,647.00
2440.22,515.00
2441.09,521.00
2441.96,638.00
2442.83,549.00
2443.69,556.00
2444.56,612.00
2445.43,594.00
2446.30,537.00
2447.17,563.00
2448.04,632.00
2448.90,588.00
2449.77,515.00
2450.64,612.00
2451.50,660.00
2452.37,667.00
2453.24,559.00
2454.10,544.00
2454.97,598.00
2455.83,696.00
2456.70,488.00
2457.56,622.00
2458.43,627.00
2459.29,662.00
2460.16,571.00
2461.02,734.00
2461.89,687.00
2462.75,622.00
2463.61,482.00
2464.48,591.00
2465.34,678.00
2466.20,675.00
2467.06,653.00
2467.93,585.00
2468.79,697.00
2469.65,624.00
2470.51,616.00
2471.37,582.00
2472.23,448.00
2473.10,630.00
2473.96,634.00
2474.82,673.00
2475.68,591.00
2476.54,768.00
2477.40,539.00
2478.26,617.00
2479.11,543.00
2479.97,586.00
2480.83,502.00
2481.69,622.00
2482.55,599.00
2483.41,704.00
2484.26,696.00
2485.12,563.00
2485.98,545.00
2486.84,682.00
2487.69,834.00
2488.55,683.00
2489.41,496.00
2490.26,559.00
2491.12,600.00
2491.97,637.00
2492.83,661.00
2493.68,625.00
2494.54,674.00
2495.39,616.00
2496.25,577.00
2497.10,648.00
2497.96,671.00
2498.81,620.00
2499.67,523.00
2500.52,636.00
2501.37,660.00
2502.22,547.00
2503.08,502.00
2503.93,623.00
2504.78,586.00
2505.63,656.00
2506.49,673.00
2507.34,656.00
2508.19,467.00
2509.04,594.00
2509.89,642.00
2510.74,588.00
2511.59,607.00
2512.44,561.00
2513.29,576.00
2514.14,511.00
2514.99,591.00
2515.84,534.00
2516.69,666.00
2517.54,521.00
2518.39,626.00
2519.24,529.00
2520.08,428.00
2520.93,566.00
2521.78,544.00
2522.63,562.00
2523.48,450.00
2524.32,549.00
2525.17,464.00
2526.02,449.00
2526.86,520.00
2527.71,496.00
2528.56,487.00
2529.40,462.00
2530.25,579.00
2531.09,557.00
2531.94,369.00
2532.78,542.00
2533.63,563.00
2534.47,404.00
2535.32,489.00
2536.16,472.00
2537.00,535.00
2537.85,424.00
2538.69,437.00
2539.53,447.00
2540.38,423.00
2541.22,549.00
2542.06,540.00
2542.90,632.00
2543.75,523.00
2544.59,470.00
2545.43,424.00
2546.27,503.00
2547.11,569.00
2547.95,446.00
2548.79,531.00
2549.64,453.00
2550.48,421.00
2551.32,450.00
2552.16,468.00
2553.00,537.00
2553.84,448.00
2554.67,399.00
2555.51,511.00
2556.35,562.00
2557.19,445.00
2558.03,478.00
2558.87,449.00
2559.71,396.00
2560.54,392.00
2561.38,445.00
2562.22,467.00
2563.06,440.00
2563.89,582.00
2564.73,463.00
2565.57,344.00
2566.40,465.00
2567.24,469.00
2568.07,523.00
2568.91,442.00
2569.75,359.00
2570.58,425.00
2571.42,373.00
2572.25,373.00
2573.09,462.00
2573.92,398.00
2574.75,341.00
2575.59,441.00
2576.42,423.00
2577.26,404.00
2578.09,452.00
2578.92,430.00
2579.76,346.00
2580.59,311.00
2581.42,417.00
2582.25,299.00
2583.09,456.00
2583.92,391.00
2584.75,555.00
2585.58,378.00
2586.41,310.00
2587.24,348.00
2588.07,307.00
2588.91,472.00
2589.74,350.00
2590.57,422.00
2591.40,421.00
2592.23,414.00
2593.06,356.00
2593.89,447.00
2594.72,412.00
2595.54,418.00
2596.37,224.00
2597.20,413.00
2598.03,408.00
2598.86,299.00
2599.69,440.00
2600.52,369.00
2601.34,340.00
2602.17,316.00
2603.00,421.00
2603.82,414.00
2604.65,355.00
2605.48,439.00
2606.30,425.00
2607.13,454.00
2607.96,364.00
2608.78,370.00
2609.61,299.00
2610.43,531.00
2611.26,516.00
2612.08,356.00
2612.91,399.00
2613.73,357.00
2614.56,381.00
2615.38,347.00
2616.21,256.00
2617.03,478.00
2617.86,471.00
2618.68,341.00
2619.50,333.00
2620.33,423.00
2621.15,442.00
2621.97,467.00
2622.79,396.00
2623.62,450.00
2624.44,277.00
2625.26,288.00
2626.08,457.00
2626.90,317.00
2627.72,337.00
2628.55,265.00
2629.37,486.00
2630.19,352.00
2631.01,432.00
2631.83,362.00
2632.65,410.00
2633.47,393.00
2634.29,433.00
2635.11,299.00
2635.93,365.00
2636.75,416.00
2637.57,432.00
2638.39,327.00
2639.20,366.00
2640.02,407.00
2640.84,240.00
2641.66,468.00
2642.48,313.00
2643.29,437.00
2644.11,294.00
2644.93,364.00
2645.75,325.00
2646.56,338.00
2647.38,429.00
2648.20,312.00
2649.01,0.00
2649.83,0.00
2650.65,0.00
2651.46,0.00
2652.28,0.00
